# Phase diagram for FCC GCM lattice
# X-data rho            Y-data T
0.09098837209302327, 0.0028018628281117697
0.09118217054263567, 0.0028137171888230313
0.09127906976744186, 0.002825571549534293
0.09147286821705428, 0.002834038950042337
0.09161821705426357, 0.00284419983065199
0.09186046511627907, 0.0028594411515664693
0.09195736434108528, 0.0028729889923793397
0.09215116279069768, 0.00288653683319221
0.0923934108527132, 0.0029000846740050807
0.09249031007751939, 0.0029127857747671465
0.092781007751938, 0.0029263336155800172
0.0929263565891473, 0.002939034716342083
0.0931686046511628, 0.002954276037256562
0.09341085271317831, 0.0029695173581710415
0.0936531007751938, 0.002985605419136325
0.09384689922480621, 0.003008467400508044
0.0941860465116279, 0.0030304826418289586
0.09447674418604651, 0.003052497883149873
0.09471899224806202, 0.0030694326841659613
0.09491279069767443, 0.0030829805249788316
0.09515503875968992, 0.00309991532599492
0.09534883720930232, 0.00311346316680779
0.09559108527131784, 0.003126164267569856
0.09583333333333334, 0.0031439458086367483
0.09617248062015504, 0.0031625740897544457
0.09636627906976744, 0.003176121930567316
0.09656007751937984, 0.0031854360711261642
0.09689922480620156, 0.003203217612193057
0.09718992248062017, 0.0032133784928027095
0.09757751937984496, 0.0032320067739204064
0.09777131782945736, 0.0032438611346316685
0.09820736434108526, 0.0032641828958509737
0.09874031007751938, 0.003282811176968671
0.0991279069767442, 0.003300592718035563
0.099515503875969, 0.003316680779000847
0.09980620155038758, 0.0033285351397121083
0.10009689922480619, 0.0033429297205757836
0.10048449612403101, 0.003357324301439458
0.10096899224806202, 0.0033751058425063505
0.10150193798449612, 0.0033962743437764608
0.10193798449612404, 0.0034132091447925486
0.10242248062015503, 0.003428450465707028
0.10290697674418606, 0.003443691786621507
0.10334302325581396, 0.003458933107535986
0.10397286821705426, 0.0034775613886536836
0.10455426356589147, 0.0034995766299745976
0.105281007751938, 0.0035241320914479258
0.10581395348837208, 0.0035368331922099915
0.10644379844961241, 0.003548687552921253
0.1067829457364341, 0.003558848433530906
0.10717054263565892, 0.003570702794242168
0.1074612403100775, 0.0035791701947502116
0.10784883720930233, 0.0035876375952582557
0.10833333333333334, 0.003601185436071126
0.10852713178294573, 0.00360965283657917
0.10920542635658914, 0.0036215071972904318
0.10998062015503876, 0.0036401354784081287
0.11046511627906977, 0.003648602878916173
0.11099806201550387, 0.0036604572396274344
0.1117248062015504, 0.0036689246401354785
0.1124031007751938, 0.0036790855207451314
0.11288759689922481, 0.003687552921253175
0.11327519379844961, 0.0036943268416596104
0.11356589147286822, 0.003699407281964437
0.11405038759689923, 0.0037112616426756987
0.11472868217054263, 0.0037231160033869603
0.11526162790697675, 0.003729889923793395
0.11618217054263566, 0.003740050804403048
0.11686046511627907, 0.0037468247248094834
0.11734496124031008, 0.003753598645215919
0.11782945736434108, 0.003758679085520745
0.11845930232558138, 0.0037637595258255717
0.11889534883720931, 0.0037705334462320066
0.1196705426356589, 0.0037756138865368332
0.12039728682170542, 0.003781541066892464
0.12112403100775193, 0.0037840812870448774
0.12209302325581395, 0.0037866215071972902
0.12277131782945735, 0.003787468247248095
0.12344961240310076, 0.0037866215071972902
0.12441860465116278, 0.0037866215071972902
0.1251937984496124, 0.003782387806943268
0.1260658914728682, 0.003777307366638442
0.126937984496124, 0.0037696867061812024
0.12761627906976744, 0.0037637595258255717
0.12858527131782946, 0.003753598645215919
0.12945736434108526, 0.003740050804403048
0.13013565891472867, 0.003727349703640982
0.1311046511627907, 0.0037078746824724808
0.1320736434108527, 0.003691786621507197
0.1327519379844961, 0.0036756985605419135
0.13323643410852712, 0.0036587637595258257
0.13367248062015502, 0.0036477561388653683
0.13401162790697674, 0.003636748518204911
0.13439922480620153, 0.0036265876375952584
0.13478682170542633, 0.003616426756985605
0.13498062015503876, 0.0036062658763759527
0.13527131782945734, 0.0035977984758679086
0.13565891472868216, 0.0035893310753598645
0.13594961240310074, 0.003577476714648603
0.13643410852713178, 0.003563928873835732
0.13672480620155036, 0.0035537679932260797
0.13720930232558137, 0.0035385266723116002
0.1377422480620155, 0.003520745131244708
0.1382751937984496, 0.003504657070279424
0.1386143410852713, 0.0034902624894157493
0.138953488372093, 0.003477561388653683
0.13924418604651162, 0.0034657070279424215
0.13953488372093023, 0.0034555461473327687
0.13987403100775192, 0.003443691786621507
0.14031007751937982, 0.0034318374259102455
0.14069767441860465, 0.0034149026248941573
0.14098837209302323, 0.0034030482641828957
0.14127906976744184, 0.003392887383573243
0.14161821705426356, 0.003377646062658764
0.14215116279069764, 0.0033624047417442843
0.14249031007751936, 0.003348856900931414
0.14282945736434108, 0.0033285351397121083
0.14336240310077517, 0.0033031329381879764
0.14389534883720928, 0.0032828111769686707
0.1443313953488372, 0.003267569856054191
0.1446705426356589, 0.003254022015241321
0.1449612403100775, 0.003238780694326842
0.1453003875968992, 0.0032269263336155802
0.1455910852713178, 0.0032133784928027095
0.14583333333333331, 0.003201524132091448
0.1461240310077519, 0.0031845893310753597
0.1464147286821705, 0.0031710414902624893
0.14680232558139533, 0.0031524132091447924
0.14709302325581392, 0.003135478408128704
0.14743217054263566, 0.0031219305673158343
0.14762596899224803, 0.0031083827265029635
0.14786821705426356, 0.0030931414055884844
0.14835271317829457, 0.0030745131244707875
0.14864341085271315, 0.0030541913632514813
0.14883720930232555, 0.0030406435224386115
0.14917635658914727, 0.0030237087214225232
0.14941860465116275, 0.003008467400508044
0.14966085271317825, 0.00299237933954276
0.14990310077519378, 0.002976291278577477
0.1501937984496124, 0.0029644369178662153
0.1503875968992248, 0.002954276037256562
0.150484496124031, 0.0029424216765453004
0.1507267441860465, 0.002930567315834039
0.15096899224806198, 0.0029187129551227773
0.1510658914728682, 0.00290770533446232
0.1512596899224806, 0.002895004233700254
0.151453488372093, 0.0028814563928873833
0.1515988372093023, 0.002867908552074513
0.1517441860465116, 0.0028560541913632514
0.151937984496124, 0.0028441998306519894
0.15213178294573643, 0.002834885690093141
0.1522286821705426, 0.002825571549534293
0.15232558139534882, 0.0028154106689246405
0.152422480620155, 0.0028027095681625743

